# Matter power spectrum P(k) at redshift z=0
# for k=1.02888e-05 to 7545.77 h/Mpc,
# number of wavenumbers equal to 857
#    1:k (h/Mpc)              2:P (Mpc/h)^3        
       1.028876163718e-05       5.018210816291e+01 
       1.052841768257e-05       5.131315946270e+01 
       1.077365603438e-05       5.246971909636e+01 
       1.102460672122e-05       5.365233502319e+01 
       1.128140280048e-05       5.486161390465e+01 
       1.154418042883e-05       5.609816068703e+01 
       1.181307893444e-05       5.736256190504e+01 
       1.208824089088e-05       5.865546177982e+01 
       1.236981219263e-05       5.997750034561e+01 
       1.265794213255e-05       6.132934019456e+01 
       1.295278348094e-05       6.271163999648e+01 
       1.325449256657e-05       6.412510983298e+01 
       1.356322935961e-05       6.557042690662e+01 
       1.387915755639e-05       6.704832662146e+01 
       1.420244466621e-05       6.855954093190e+01 
       1.453326210019e-05       7.010479556133e+01 
       1.487178526210e-05       7.168488874393e+01 
       1.521819364141e-05       7.330059327549e+01 
       1.557267090843e-05       7.495271344322e+01 
       1.593540501169e-05       7.664207036385e+01 
       1.630658827762e-05       7.836950311790e+01 
       1.668641751249e-05       8.013587056832e+01 
       1.707509410681e-05       8.194204005958e+01 
       1.747282414203e-05       8.378892330996e+01 
       1.787981849989e-05       8.567743898309e+01 
       1.829629297419e-05       8.760850767017e+01 
       1.872246838521e-05       8.958310600262e+01 
       1.915857069678e-05       9.160220462874e+01 
       1.960483113613e-05       9.366680573555e+01 
       2.006148631645e-05       9.577794105587e+01 
       2.052877836236e-05       9.793665747209e+01 
       2.100695503829e-05       1.001440248156e+02 
       2.149626987983e-05       1.024011345976e+02 
       2.199698232821e-05       1.047091309048e+02 
       2.250935786778e-05       1.070691323371e+02 
       2.303366816684e-05       1.094823255402e+02 
       2.357019122165e-05       1.119498883701e+02 
       2.411921150383e-05       1.144730864751e+02 
       2.468102011121e-05       1.170531400290e+02 
       2.525591492214e-05       1.196913462863e+02 
       2.584420075346e-05       1.223890037055e+02 
       2.644618952212e-05       1.251474524259e+02 
       2.706220041051e-05       1.279680776971e+02 
       2.769256003577e-05       1.308522658524e+02 
       2.833760262292e-05       1.338014518278e+02 
       2.899767018207e-05       1.368171018251e+02 
       2.967311268978e-05       1.399007127061e+02 
       3.036428827461e-05       1.430538160199e+02 
       3.107156340700e-05       1.462779736507e+02 
       3.179531309359e-05       1.495747918397e+02 
       3.253592107604e-05       1.529459020333e+02 
       3.329378003452e-05       1.563929830959e+02 
       3.406929179586e-05       1.599177450515e+02 
       3.486286754667e-05       1.635219360405e+02 
       3.567492805132e-05       1.672073488503e+02 
       3.650590387503e-05       1.709758071826e+02 
       3.735623561220e-05       1.748291838703e+02 
       3.822637411995e-05       1.787693933442e+02 
       3.911678075725e-05       1.827983892831e+02 
       4.002792762947e-05       1.869181746049e+02 
       4.096029783876e-05       1.911307861600e+02 
       4.191438574014e-05       1.954383253470e+02 
       4.289069720363e-05       1.998429196580e+02 
       4.388974988252e-05       2.043467615025e+02 
       4.491207348773e-05       2.089520837431e+02 
       4.595821006880e-05       2.136611692603e+02 
       4.702871430116e-05       2.184763567584e+02 
       4.812415378036e-05       2.234000336880e+02 
       4.924510932288e-05       2.284346428026e+02 
       5.039217527420e-05       2.335826805450e+02 
       5.156595982387e-05       2.388467030951e+02 
       5.276708532800e-05       2.442293138350e+02 
       5.399618863922e-05       2.497331918399e+02 
       5.525392144439e-05       2.553610593346e+02 
       5.654095061007e-05       2.611157096595e+02 
       5.785795853618e-05       2.669999958562e+02 
       5.920564351774e-05       2.730168302431e+02 
       6.058472011518e-05       2.791692011836e+02 
       6.199591953315e-05       2.854601547623e+02 
       6.343999000828e-05       2.918928079285e+02 
       6.491769720583e-05       2.984703495729e+02 
       6.642982462573e-05       3.051960370823e+02 
       6.797717401795e-05       3.120732027437e+02 
       6.956056580762e-05       3.191052518740e+02 
       7.118083953002e-05       3.262956677085e+02 
       7.283885427573e-05       3.336480088080e+02 
       7.453548914611e-05       3.411659177426e+02 
       7.627164371944e-05       3.488531149368e+02 
       7.804823852783e-05       3.567134030226e+02 
       7.986621554539e-05       3.647506721497e+02 
       8.172653868758e-05       3.729689006240e+02 
       8.363019432236e-05       3.813721491699e+02 
       8.557819179315e-05       3.899645762706e+02 
       8.757156395399e-05       3.987504275744e+02 
       8.961136771719e-05       4.077340484638e+02 
       9.169868461369e-05       4.169198759642e+02 
       9.383462136655e-05       4.263124491485e+02 
       9.602031047771e-05       4.359164065202e+02 
       9.825691082846e-05       4.457364918436e+02 
       1.005456082939e-04       4.557775511686e+02 
       1.028876163718e-04       4.660445401276e+02 
       1.052841768257e-04       4.765425236887e+02 
       1.077365603438e-04       4.872766790494e+02 
       1.102460672122e-04       4.982522971687e+02 
       1.128140280048e-04       5.094747892458e+02 
       1.154418042883e-04       5.209496829488e+02 
       1.181307893444e-04       5.326826275866e+02 
       1.208824089088e-04       5.446794007778e+02 
       1.236981219263e-04       5.569459027409e+02 
       1.265794213255e-04       5.694881679310e+02 
       1.295278348094e-04       5.823123623593e+02 
       1.325449256657e-04       5.954247854575e+02 
       1.356322935961e-04       6.088318782462e+02 
       1.387915755639e-04       6.225402193047e+02 
       1.420244466621e-04       6.365565355967e+02 
       1.453326210019e-04       6.508876954130e+02 
       1.487178526210e-04       6.654756057013e+02 
       1.521819364141e-04       6.804546627082e+02 
       1.557267090843e-04       6.957699538328e+02 
       1.593540501169e-04       7.114289623217e+02 
       1.630658827762e-04       7.274393344754e+02 
       1.668641751249e-04       7.438088835211e+02 
       1.707509410681e-04       7.605455876209e+02 
       1.747282414203e-04       7.776575996096e+02 
       1.787981849989e-04       7.951532496781e+02 
       1.829629297419e-04       8.130410433233e+02 
       1.872246838521e-04       8.313296690688e+02 
       1.915857069678e-04       8.500280025434e+02 
       1.960483113613e-04       8.691451076936e+02 
       2.006148631645e-04       8.886902433102e+02 
       2.052877836236e-04       9.086728611990e+02 
       2.100695503829e-04       9.291026152487e+02 
       2.149626987983e-04       9.499893640844e+02 
       2.199698232821e-04       9.713431736478e+02 
       2.250935786778e-04       9.931743197900e+02 
       2.303366816684e-04       1.015493292788e+03 
       2.357019122165e-04       1.038310803727e+03 
       2.411921150383e-04       1.061637785329e+03 
       2.468102011121e-04       1.085485397768e+03 
       2.525591492214e-04       1.109865030425e+03 
       2.584420075346e-04       1.134788306645e+03 
       2.644618952212e-04       1.160267088608e+03 
       2.706220041051e-04       1.186313480240e+03 
       2.769256003577e-04       1.212939830869e+03 
       2.833760262292e-04       1.240158741890e+03 
       2.899767018207e-04       1.267983063096e+03 
       2.967311268978e-04       1.296425906119e+03 
       3.036428827461e-04       1.325500644598e+03 
       3.107156340700e-04       1.355220914125e+03 
       3.179531309359e-04       1.385600621162e+03 
       3.253592107604e-04       1.416653945083e+03 
       3.329378003452e-04       1.448395341912e+03 
       3.406929179586e-04       1.480839548588e+03 
       3.486286754667e-04       1.514001583077e+03 
       3.567492805132e-04       1.547896755850e+03 
       3.650590387503e-04       1.582540667612e+03 
       3.735623561220e-04       1.617949212209e+03 
       3.822637411995e-04       1.654138579438e+03 
       3.911678075725e-04       1.691125273822e+03 
       4.002792762947e-04       1.728926090235e+03 
       4.096029783876e-04       1.767558140688e+03 
       4.191438574014e-04       1.807038843353e+03 
       4.289069720363e-04       1.847385942630e+03 
       4.388974988251e-04       1.888617489628e+03 
       4.491207348773e-04       1.930751863815e+03 
       4.595821006879e-04       1.973807764399e+03 
       4.702871430116e-04       2.017804219673e+03 
       4.812415378036e-04       2.062760587411e+03 
       4.924510932288e-04       2.108696558305e+03 
       5.039217527420e-04       2.155632155854e+03 
       5.156595982387e-04       2.203587738692e+03 
       5.276708532800e-04       2.252584008425e+03 
       5.399618863922e-04       2.302642004551e+03 
       5.525392144439e-04       2.353783109854e+03 
       5.654095061007e-04       2.406029047258e+03 
       5.785795853618e-04       2.459401890295e+03 
       5.920564351774e-04       2.513924055347e+03 
       6.058472011518e-04       2.569618298718e+03 
       6.199591953315e-04       2.626507736321e+03 
       6.343999000828e-04       2.684615820049e+03 
       6.491769720583e-04       2.743966359338e+03 
       6.642982462573e-04       2.804583501085e+03 
       6.797717401795e-04       2.866491729380e+03 
       6.956056580762e-04       2.929715886436e+03 
       7.118083953002e-04       2.994281153863e+03 
       7.283885427573e-04       3.060213035006e+03 
       7.453548914611e-04       3.127537384199e+03 
       7.627164371944e-04       3.196280374558e+03 
       7.804823852783e-04       3.266468511342e+03 
       7.986621554539e-04       3.338128616427e+03 
       8.172653868758e-04       3.411287823991e+03 
       8.363019432236e-04       3.485973569419e+03 
       8.557819179315e-04       3.562213584707e+03 
       8.757156395399e-04       3.640035898927e+03 
       8.961136771719e-04       3.719468790683e+03 
       9.169868461369e-04       3.800540839445e+03 
       9.383462136655e-04       3.883280833376e+03 
       9.602031047771e-04       3.967717834343e+03 
       9.825691082846e-04       4.053881099561e+03 
       1.005456082939e-03       4.141800097830e+03 
       1.028876163718e-03       4.231504475102e+03 
       1.052841768257e-03       4.323024064061e+03 
       1.077365603438e-03       4.416388852221e+03 
       1.102460672122e-03       4.511628888324e+03 
       1.128140280048e-03       4.608774410768e+03 
       1.154418042883e-03       4.707855680175e+03 
       1.181307893444e-03       4.808903035465e+03 
       1.208824089088e-03       4.911946828508e+03 
       1.236981219263e-03       5.017017434281e+03 
       1.265794213255e-03       5.124145190889e+03 
       1.295278348094e-03       5.233360401342e+03 
       1.325449256657e-03       5.344682516064e+03 
       1.356322935961e-03       5.458147468977e+03 
       1.387915755639e-03       5.573789412748e+03 
       1.420244466621e-03       5.691637937786e+03 
       1.453326210019e-03       5.811722913849e+03 
       1.487178526210e-03       5.934072787864e+03 
       1.521819364141e-03       6.058717212731e+03 
       1.557267090843e-03       6.185684007328e+03 
       1.593540501169e-03       6.315001526761e+03 
       1.630658827762e-03       6.446697251165e+03 
       1.668641751249e-03       6.580798241444e+03 
       1.707509410681e-03       6.717330966304e+03 
       1.747282414203e-03       6.856321205388e+03 
       1.787981849989e-03       6.997794029878e+03 
       1.829629297419e-03       7.141773743591e+03 
       1.872246838521e-03       7.288283799132e+03 
       1.915857069678e-03       7.437346723898e+03 
       1.960483113613e-03       7.588983920735e+03 
       2.006148631645e-03       7.743216115925e+03 
       2.052877836236e-03       7.900062421656e+03 
       2.100695503829e-03       8.059541296644e+03 
       2.149626987983e-03       8.221668743929e+03 
       2.199698232821e-03       8.386461189369e+03 
       2.250935786778e-03       8.553932240896e+03 
       2.303366816684e-03       8.724094387719e+03 
       2.357019122165e-03       8.896958465123e+03 
       2.411921150383e-03       9.072533531075e+03 
       2.468102011121e-03       9.250826170285e+03 
       2.525591492214e-03       9.431843741222e+03 
       2.584420075346e-03       9.615586550842e+03 
       2.644618952212e-03       9.802057416845e+03 
       2.706220041051e-03       9.991258127771e+03 
       2.769256003577e-03       1.018318187246e+04 
       2.833760262292e-03       1.037782269469e+04 
       2.899767018207e-03       1.057517355862e+04 
       2.967311268978e-03       1.077522359026e+04 
       3.036428827461e-03       1.097795847830e+04 
       3.107156340700e-03       1.118336159131e+04 
       3.179531309359e-03       1.139141412914e+04 
       3.253592107604e-03       1.160209256261e+04 
       3.329378003452e-03       1.181537059891e+04 
       3.406929179586e-03       1.203121908387e+04 
       3.486286754667e-03       1.224960474438e+04 
       3.567492805132e-03       1.247049066872e+04 
       3.650590387503e-03       1.269383508269e+04 
       3.735623561220e-03       1.291959421408e+04 
       3.822637411995e-03       1.314771752685e+04 
       3.911678075725e-03       1.337815178573e+04 
       4.002792762947e-03       1.361083941498e+04 
       4.096029783876e-03       1.384571519116e+04 
       4.191438574014e-03       1.408271293708e+04 
       4.289069720363e-03       1.432175924399e+04 
       4.388974988251e-03       1.456277379893e+04 
       4.491207348773e-03       1.480567402209e+04 
       4.595821006879e-03       1.505037263475e+04 
       4.702871430116e-03       1.529673319738e+04 
       4.812415378036e-03       1.554472128910e+04 
       4.924510932288e-03       1.579420593244e+04 
       5.039217527420e-03       1.604506116067e+04 
       5.156595982387e-03       1.629718346539e+04 
       5.276708532800e-03       1.655050843208e+04 
       5.399618863922e-03       1.680481936699e+04 
       5.525392144439e-03       1.706001640712e+04 
       5.654095061007e-03       1.731592774728e+04 
       5.785795853618e-03       1.757187802541e+04 
       5.920564351774e-03       1.782873503970e+04 
       6.058472011518e-03       1.808581396160e+04 
       6.199591953315e-03       1.834294870965e+04 
       6.343999000828e-03       1.859991441079e+04 
       6.491769720583e-03       1.885668797676e+04 
       6.642982462573e-03       1.911272796242e+04 
       6.797717401795e-03       1.936815904981e+04 
       6.956056580762e-03       1.962280260797e+04 
       7.118083953002e-03       1.987634729765e+04 
       7.283885427573e-03       2.012832112346e+04 
       7.453548914611e-03       2.037891746635e+04 
       7.627164371944e-03       2.062795802771e+04 
       7.804823852783e-03       2.087429753732e+04 
       7.986621554539e-03       2.111830915561e+04 
       8.172653868758e-03       2.135957948704e+04 
       8.363019432236e-03       2.159882982127e+04 
       8.557819179315e-03       2.183398043246e+04 
       8.757156395399e-03       2.206566054000e+04 
       8.961136771719e-03       2.229243232279e+04 
       9.169868461369e-03       2.251597697178e+04 
       9.383462136655e-03       2.273574240722e+04 
       9.602031047771e-03       2.294899050622e+04 
       9.825691082846e-03       2.315868073944e+04 
       1.005456082939e-02       2.336076555665e+04 
       1.028876163718e-02       2.355868549494e+04 
       1.052841768257e-02       2.374919945953e+04 
       1.077365603438e-02       2.393432478331e+04 
       1.102460672122e-02       2.411054413563e+04 
       1.128140280048e-02       2.428047397762e+04 
       1.154418042883e-02       2.444274513921e+04 
       1.181307893444e-02       2.459602561164e+04 
       1.208824089088e-02       2.474058433485e+04 
       1.236981219263e-02       2.487535934791e+04 
       1.265794213255e-02       2.500176535501e+04 
       1.295278348094e-02       2.511619687695e+04 
       1.325449256657e-02       2.522284192677e+04 
       1.356322935961e-02       2.531616185741e+04 
       1.387915755639e-02       2.539959795322e+04 
       1.420244466621e-02       2.547145560279e+04 
       1.453326210019e-02       2.553048464276e+04 
       1.487178526212e-02       2.557685473833e+04 
       1.521819364145e-02       2.560897192572e+04 
       1.557267090851e-02       2.562918200698e+04 
       1.593540501188e-02       2.563572374582e+04 
       1.630658827804e-02       2.562836164871e+04 
       1.668641751344e-02       2.560485242650e+04 
       1.707509410885e-02       2.556745024245e+04 
       1.747282414639e-02       2.551503616363e+04 
       1.787981850899e-02       2.544683436147e+04 
       1.829629299281e-02       2.536286497181e+04 
       1.872246842262e-02       2.526325441947e+04 
       1.915857077056e-02       2.514783402211e+04 
       1.960483127898e-02       2.501484202123e+04 
       2.006148658813e-02       2.486667726795e+04 
       2.052877887008e-02       2.470077529159e+04 
       2.100695597099e-02       2.451919199597e+04 
       2.149627156466e-02       2.432168512814e+04 
       2.199698532199e-02       2.410674278880e+04 
       2.250936310248e-02       2.387681052673e+04 
       2.303367717674e-02       2.362989269401e+04 
       2.357020649215e-02       2.336795587929e+04 
       2.411923699791e-02       2.309095731049e+04 
       2.468106205076e-02       2.279916633467e+04 
       2.525598292870e-02       2.249359068194e+04 
       2.584430948679e-02       2.217408198278e+04 
       2.644636099693e-02       2.184175833920e+04 
       2.706246722101e-02       2.149778518998e+04 
       2.769296977549e-02       2.114255561088e+04 
       2.833822385199e-02       2.077703120429e+04 
       2.899860036522e-02       2.040226215477e+04 
       2.967448860299e-02       2.001958084731e+04 
       3.036629945394e-02       1.963011321333e+04 
       3.107446928608e-02       1.923515109030e+04 
       3.179946454091e-02       1.883553068673e+04 
       3.254178709612e-02       1.843293381743e+04 
       3.330198043088e-02       1.802844414339e+04 
       3.408063660488e-02       1.762378182116e+04 
       3.487840403366e-02       1.722001324760e+04 
       3.569599600992e-02       1.681875573354e+04 
       3.653419988522e-02       1.642109367861e+04 
       3.739388678861e-02       1.602859608045e+04 
       3.827602172115e-02       1.564243496787e+04 
       3.918167382851e-02       1.526381146911e+04 
       4.011202661975e-02       1.489408047790e+04 
       4.106838787014e-02       1.453419992557e+04 
       4.205219892026e-02       1.418528310231e+04 
       4.306504306417e-02       1.384815221827e+04 
       4.410865270696e-02       1.352369870764e+04 
       4.518491496736e-02       1.321269514457e+04 
       4.629587540660e-02       1.291545900623e+04 
       4.744373958187e-02       1.263250427321e+04 
       4.863087215392e-02       1.236404783556e+04 
       4.985979332620e-02       1.210968232906e+04 
       5.113317246011e-02       1.186944589685e+04 
       5.245381879808e-02       1.164221405165e+04 
       5.382466933384e-02       1.142683232201e+04 
       5.524877399499e-02       1.122171932118e+04 
       5.672927844060e-02       1.102469394958e+04 
       5.826940491871e-02       1.083334787155e+04 
       5.987243176328e-02       1.064428904197e+04 
       6.154167222490e-02       1.045344679498e+04 
       6.328045341150e-02       1.025712193015e+04 
       6.509209615275e-02       1.005064326308e+04 
       6.697989658899e-02       9.829070280146e+03 
       6.894711021908e-02       9.588110837230e+03 
